# Energy(keV)    dEe/dx(keV/micro_m)  dEn/dx(keV/micro_m)  x(micro_m)
9.999990000000000268e-03 3.334999999999999964e+00 3.382000000000000028e+01 3.000000000000000279e-04
1.099989999999999996e-02 3.498000000000000220e+00 3.564000000000000057e+01 3.000000000000000279e-04
1.199990000000000084e-02 3.653000000000000025e+00 3.738000000000000256e+01 3.000000000000000279e-04
1.299990000000000000e-02 3.802000000000000046e+00 3.903999999999999915e+01 3.000000000000000279e-04
1.399990000000000089e-02 3.946000000000000174e+00 4.063000000000000256e+01 3.000000000000000279e-04
1.499990000000000004e-02 4.083999999999999631e+00 4.215999999999999659e+01 3.000000000000000279e-04
1.599990000000000093e-02 4.217999999999999972e+00 4.364000000000000057e+01 3.000000000000000279e-04
1.699990000000000182e-02 4.347999999999999865e+00 4.506000000000000227e+01 3.000000000000000279e-04
1.799989999999999923e-02 4.474000000000000199e+00 4.643999999999999773e+01 3.000000000000000279e-04
1.999990000000000101e-02 4.716000000000000192e+00 4.906000000000000227e+01 4.000000000000000192e-04
2.249989999999999976e-02 5.001999999999999780e+00 5.214000000000000057e+01 4.000000000000000192e-04
2.499990000000000198e-02 5.272999999999999687e+00 5.503000000000000114e+01 4.000000000000000192e-04
2.749990000000000073e-02 5.530000000000000249e+00 5.774000000000000199e+01 4.000000000000000192e-04
2.999989999999999948e-02 5.775999999999999801e+00 6.031000000000000227e+01 4.000000000000000192e-04
3.249989999999999823e-02 6.011999999999999567e+00 6.275000000000000000e+01 4.000000000000000192e-04
3.499990000000000046e-02 6.238999999999999879e+00 6.506999999999999318e+01 5.000000000000000104e-04
3.749989999999999574e-02 6.458000000000000185e+00 6.729000000000000625e+01 5.000000000000000104e-04
3.999989999999999796e-02 6.669999999999999929e+00 6.942000000000000171e+01 5.000000000000000104e-04
4.499989999999999546e-02 7.073999999999999844e+00 7.343000000000000682e+01 5.000000000000000104e-04
4.999989999999999990e-02 7.456999999999999851e+00 7.715999999999999659e+01 6.000000000000000559e-04
5.499989999999999740e-02 7.820999999999999730e+00 8.065000000000000568e+01 6.000000000000000559e-04
5.999989999999999490e-02 8.169000000000000483e+00 8.393000000000000682e+01 6.000000000000000559e-04
6.499989999999999934e-02 8.502000000000000668e+00 8.701999999999999602e+01 6.000000000000000559e-04
6.999990000000000379e-02 8.823000000000000398e+00 8.995000000000000284e+01 6.999999999999999929e-04
7.999989999999999879e-02 9.432000000000000384e+00 9.540000000000000568e+01 6.999999999999999929e-04
8.999989999999999379e-02 1.000000000000000000e+01 1.004000000000000057e+02 6.999999999999999929e-04
9.999990000000000268e-02 1.055000000000000071e+01 1.049000000000000057e+02 8.000000000000000383e-04
1.100000000000000006e-01 1.106000000000000050e+01 1.092000000000000028e+02 8.000000000000000383e-04
1.199999999999999956e-01 1.155000000000000071e+01 1.130999999999999943e+02 9.000000000000000838e-04
1.300000000000000044e-01 1.201999999999999957e+01 1.167999999999999972e+02 9.000000000000000838e-04
1.399989999999999846e-01 1.248000000000000043e+01 1.202999999999999972e+02 9.000000000000000838e-04
1.499989999999999934e-01 1.291999999999999993e+01 1.235999999999999943e+02 1.000000000000000021e-03
1.599990000000000023e-01 1.333999999999999986e+01 1.267000000000000028e+02 1.000000000000000021e-03
1.699990000000000112e-01 1.375000000000000000e+01 1.296999999999999886e+02 1.100000000000000066e-03
1.799989999999999923e-01 1.415000000000000036e+01 1.325000000000000000e+02 1.100000000000000066e-03
1.999990000000000101e-01 1.491000000000000014e+01 1.378000000000000114e+02 1.200000000000000112e-03
2.249990000000000046e-01 1.582000000000000028e+01 1.436999999999999886e+02 1.200000000000000112e-03
2.499989999999999990e-01 1.667000000000000171e+01 1.490999999999999943e+02 1.300000000000000157e-03
2.749990000000000490e-01 1.748999999999999844e+01 1.540999999999999943e+02 1.399999999999999986e-03
2.999990000000000157e-01 1.826999999999999957e+01 1.585999999999999943e+02 1.500000000000000031e-03
3.249990000000000379e-01 1.901000000000000156e+01 1.628000000000000114e+02 1.500000000000000031e-03
3.499990000000000046e-01 1.973000000000000043e+01 1.666999999999999886e+02 1.600000000000000077e-03
3.749990000000000268e-01 2.042000000000000171e+01 1.703000000000000114e+02 1.700000000000000122e-03
3.999990000000000490e-01 2.108999999999999986e+01 1.736999999999999886e+02 1.800000000000000168e-03
4.499990000000000379e-01 2.237000000000000099e+01 1.799000000000000057e+02 1.899999999999999996e-03
4.999990000000000268e-01 2.357999999999999829e+01 1.855000000000000000e+02 2.000000000000000042e-03
5.499990000000000157e-01 2.473000000000000043e+01 1.904000000000000057e+02 2.200000000000000133e-03
5.999990000000000601e-01 2.582999999999999829e+01 1.949000000000000057e+02 2.299999999999999961e-03
6.499989999999999934e-01 2.689000000000000057e+01 1.990000000000000000e+02 2.400000000000000223e-03
6.999990000000000379e-01 2.789999999999999858e+01 2.028000000000000114e+02 2.500000000000000052e-03
7.999990000000000157e-01 2.982999999999999829e+01 2.094000000000000057e+02 2.799999999999999972e-03
8.999989999999999934e-01 3.164000000000000057e+01 2.151999999999999886e+02 3.000000000000000062e-03
9.999990000000000823e-01 3.335000000000000142e+01 2.200999999999999943e+02 3.200000000000000153e-03
1.100000000000000089e+00 3.497999999999999687e+01 2.245000000000000000e+02 3.500000000000000073e-03
1.199999999999999956e+00 3.653000000000000114e+01 2.283000000000000114e+02 3.700000000000000164e-03
1.300000000000000044e+00 3.802000000000000313e+01 2.318000000000000114e+02 3.900000000000000255e-03
1.399999999999999911e+00 3.946000000000000085e+01 2.348000000000000114e+02 4.100000000000000346e-03
1.500000000000000000e+00 4.084000000000000341e+01 2.375999999999999943e+02 4.300000000000000003e-03
1.600000000000000089e+00 4.217999999999999972e+01 2.400000000000000000e+02 4.500000000000000527e-03
1.699999999999999956e+00 4.347999999999999687e+01 2.423000000000000114e+02 4.800000000000000447e-03
1.800000000000000044e+00 4.474000000000000199e+01 2.443000000000000114e+02 5.000000000000000104e-03
2.000000000000000000e+00 4.715999999999999659e+01 2.478000000000000114e+02 5.400000000000000286e-03
2.250000000000000000e+00 5.002000000000000313e+01 2.513000000000000114e+02 5.899999999999999863e-03
2.500000000000000000e+00 5.272999999999999687e+01 2.540999999999999943e+02 6.400000000000000307e-03
2.750000000000000000e+00 5.529999999999999716e+01 2.563999999999999773e+02 6.900000000000000751e-03
3.000000000000000000e+00 5.775999999999999801e+01 2.581000000000000227e+02 7.400000000000000328e-03
3.250000000000000000e+00 6.011999999999999744e+01 2.595000000000000000e+02 7.900000000000000772e-03
3.500000000000000000e+00 6.239000000000000057e+01 2.606000000000000227e+02 8.400000000000001216e-03
3.750000000000000000e+00 6.457999999999999829e+01 2.613999999999999773e+02 8.899999999999999925e-03
4.000000000000000000e+00 6.670000000000000284e+01 2.620000000000000000e+02 9.400000000000000369e-03
4.500000000000000000e+00 7.073999999999999488e+01 2.626000000000000227e+02 1.040000000000000126e-02
5.000000000000000000e+00 7.456999999999999318e+01 2.626000000000000227e+02 1.130000000000000102e-02
5.500000000000000000e+00 7.820999999999999375e+01 2.623000000000000114e+02 1.230000000000000017e-02
6.000000000000000000e+00 8.168999999999999773e+01 2.616000000000000227e+02 1.330000000000000106e-02
6.500000000000000000e+00 8.501999999999999602e+01 2.606000000000000227e+02 1.420000000000000082e-02
7.000000000000000000e+00 8.823000000000000398e+01 2.595000000000000000e+02 1.519999999999999997e-02
8.000000000000000000e+00 9.431999999999999318e+01 2.568000000000000114e+02 1.720000000000000001e-02
9.000000000000000000e+00 1.000000000000000000e+02 2.538000000000000114e+02 1.910000000000000239e-02
1.000000000000000000e+01 1.055000000000000000e+02 2.505000000000000000e+02 2.110000000000000070e-02
1.100000000000000000e+01 1.105999999999999943e+02 2.471999999999999886e+02 2.299999999999999961e-02
1.200000000000000000e+01 1.155000000000000000e+02 2.438000000000000114e+02 2.500000000000000139e-02
1.300000000000000000e+01 1.202000000000000028e+02 2.404000000000000057e+02 2.699999999999999969e-02
1.400000000000000000e+01 1.247999999999999972e+02 2.370000000000000000e+02 2.890000000000000208e-02
1.500000000000000000e+01 1.291999999999999886e+02 2.336999999999999886e+02 3.090000000000000038e-02
1.600000000000000000e+01 1.334000000000000057e+02 2.304000000000000057e+02 3.289999999999999869e-02
1.700000000000000000e+01 1.375000000000000000e+02 2.271999999999999886e+02 3.490000000000000047e-02
1.800000000000000000e+01 1.415000000000000000e+02 2.240999999999999943e+02 3.690000000000000224e-02
2.000000000000000000e+01 1.490999999999999943e+02 2.180999999999999943e+02 4.100000000000000172e-02
2.250000000000000000e+01 1.581999999999999886e+02 2.110000000000000000e+02 4.610000000000000209e-02
2.500000000000000000e+01 1.666999999999999886e+02 2.043000000000000114e+02 5.109999999999999959e-02
2.750000000000000000e+01 1.749000000000000057e+02 1.981999999999999886e+02 5.630000000000000282e-02
3.000000000000000000e+01 1.826999999999999886e+02 1.924000000000000057e+02 6.140000000000000319e-02
3.250000000000000000e+01 1.906999999999999886e+02 1.870000000000000000e+02 6.650000000000000355e-02
3.500000000000000000e+01 2.004000000000000057e+02 1.819000000000000057e+02 7.169999999999999984e-02
3.750000000000000000e+01 2.090999999999999943e+02 1.770999999999999943e+02 7.680000000000000715e-02
4.000000000000000000e+01 2.170999999999999943e+02 1.726999999999999886e+02 8.179999999999999771e-02
4.500000000000000000e+01 2.310000000000000000e+02 1.645000000000000000e+02 9.199999999999999845e-02
5.000000000000000000e+01 2.430999999999999943e+02 1.570999999999999943e+02 1.021000000000000102e-01
5.500000000000000000e+01 2.539000000000000057e+02 1.505000000000000000e+02 1.122000000000000081e-01
6.000000000000000000e+01 2.636000000000000227e+02 1.445999999999999943e+02 1.223000000000000059e-01
6.500000000000000000e+01 2.726999999999999886e+02 1.390999999999999943e+02 1.324000000000000177e-01
7.000000000000000000e+01 2.811000000000000227e+02 1.341999999999999886e+02 1.423999999999999988e-01
8.000000000000000000e+01 2.968000000000000114e+02 1.254000000000000057e+02 1.625000000000000056e-01
9.000000000000000000e+01 3.113000000000000114e+02 1.177999999999999972e+02 1.824999999999999956e-01
1.000000000000000000e+02 3.246999999999999886e+02 1.112999999999999972e+02 2.023000000000000076e-01
1.100000000000000000e+02 3.376000000000000227e+02 1.055000000000000000e+02 2.220000000000000029e-01
1.200000000000000000e+02 3.498999999999999773e+02 1.005000000000000000e+02 2.415000000000000202e-01
1.300000000000000000e+02 3.618000000000000114e+02 9.590000000000000568e+01 2.608000000000000318e-01
1.400000000000000000e+02 3.735000000000000000e+02 9.181000000000000227e+01 2.800000000000000266e-01
1.500000000000000000e+02 3.848999999999999773e+02 8.809999999999999432e+01 2.988999999999999990e-01
1.600000000000000000e+02 3.961999999999999886e+02 8.471999999999999886e+01 3.175999999999999934e-01
1.700000000000000000e+02 4.073000000000000114e+02 8.162999999999999545e+01 3.361000000000000099e-01
1.800000000000000000e+02 4.183999999999999773e+02 7.879000000000000625e+01 3.543000000000000038e-01
2.000000000000000000e+02 4.403000000000000114e+02 7.375000000000000000e+01 3.901000000000000023e-01
2.250000000000000000e+02 4.675000000000000000e+02 6.839000000000000057e+01 4.334999999999999964e-01
2.500000000000000000e+02 4.945000000000000000e+02 6.385000000000000142e+01 4.755000000000000338e-01
2.750000000000000000e+02 5.215000000000000000e+02 5.995000000000000284e+01 5.161000000000000032e-01
3.000000000000000000e+02 5.483999999999999773e+02 5.656000000000000227e+01 5.552000000000000268e-01
3.250000000000000000e+02 5.752000000000000455e+02 5.357000000000000028e+01 5.931000000000000716e-01
3.500000000000000000e+02 6.018999999999999773e+02 5.092999999999999972e+01 6.297000000000000375e-01
3.750000000000000000e+02 6.286000000000000227e+02 4.856000000000000227e+01 6.651000000000000245e-01
4.000000000000000000e+02 6.552000000000000455e+02 4.642999999999999972e+01 6.993000000000000327e-01
4.500000000000000000e+02 7.078999999999999773e+02 4.274000000000000199e+01 7.647000000000000464e-01
5.000000000000000000e+02 7.598999999999999773e+02 3.964999999999999858e+01 8.262000000000000455e-01
5.500000000000000000e+02 8.112000000000000455e+02 3.703000000000000114e+01 8.843000000000000860e-01
6.000000000000000000e+02 8.616000000000000227e+02 3.477000000000000313e+01 9.394000000000000128e-01
6.500000000000000000e+02 9.110000000000000000e+02 3.278999999999999915e+01 9.919000000000000039e-01
7.000000000000000000e+02 9.593999999999999773e+02 3.105000000000000071e+01 1.040000000000000036e+00
8.000000000000000000e+02 1.053000000000000000e+03 2.812000000000000099e+01 1.139999999999999902e+00
9.000000000000000000e+02 1.142000000000000000e+03 2.573999999999999844e+01 1.219999999999999973e+00
1.000000000000000000e+03 1.226000000000000000e+03 2.376999999999999957e+01 1.300000000000000044e+00
1.100000000000000000e+03 1.306000000000000000e+03 2.210999999999999943e+01 1.379999999999999893e+00
1.200000000000000000e+03 1.381000000000000000e+03 2.067999999999999972e+01 1.449999999999999956e+00
1.300000000000000000e+03 1.452000000000000000e+03 1.944000000000000128e+01 1.520000000000000018e+00
1.400000000000000000e+03 1.518000000000000000e+03 1.835999999999999943e+01 1.590000000000000080e+00
1.500000000000000000e+03 1.580000000000000000e+03 1.739999999999999858e+01 1.649999999999999911e+00
1.600000000000000000e+03 1.639000000000000000e+03 1.653999999999999915e+01 1.709999999999999964e+00
1.700000000000000000e+03 1.694000000000000000e+03 1.577999999999999936e+01 1.770000000000000018e+00
1.800000000000000000e+03 1.745000000000000000e+03 1.508000000000000007e+01 1.820000000000000062e+00
2.000000000000000000e+03 1.838000000000000000e+03 1.388000000000000078e+01 1.929999999999999938e+00
2.250000000000000000e+03 1.937000000000000000e+03 1.264000000000000057e+01 2.060000000000000053e+00
2.500000000000000000e+03 2.019000000000000000e+03 1.160999999999999943e+01 2.189999999999999947e+00
2.750000000000000000e+03 2.088000000000000000e+03 1.075999999999999979e+01 2.310000000000000053e+00
3.000000000000000000e+03 2.145000000000000000e+03 1.002999999999999936e+01 2.430000000000000160e+00
3.250000000000000000e+03 2.191000000000000000e+03 9.398999999999999133e+00 2.540000000000000036e+00
3.500000000000000000e+03 2.228000000000000000e+03 8.849000000000000199e+00 2.649999999999999911e+00
3.750000000000000000e+03 2.258000000000000000e+03 8.365000000000000213e+00 2.759999999999999787e+00
4.000000000000000000e+03 2.282000000000000000e+03 7.934999999999999609e+00 2.870000000000000107e+00
4.500000000000000000e+03 2.315000000000000000e+03 7.203999999999999737e+00 3.089999999999999858e+00
5.000000000000000000e+03 2.332000000000000000e+03 6.605000000000000426e+00 3.299999999999999822e+00
5.500000000000000000e+03 2.340000000000000000e+03 6.104000000000000092e+00 3.509999999999999787e+00
6.000000000000000000e+03 2.340000000000000000e+03 5.679000000000000270e+00 3.729999999999999982e+00
6.500000000000000000e+03 2.334000000000000000e+03 5.312999999999999723e+00 3.939999999999999947e+00
7.000000000000000000e+03 2.326000000000000000e+03 4.993999999999999773e+00 4.150000000000000355e+00
8.000000000000000000e+03 2.302000000000000000e+03 4.466000000000000192e+00 4.580000000000000071e+00
9.000000000000000000e+03 2.273000000000000000e+03 4.044999999999999929e+00 5.019999999999999574e+00
1.000000000000000000e+04 2.241000000000000000e+03 3.701000000000000068e+00 5.459999999999999964e+00
