# Energy(keV)    dEe/dx(keV/micro_m)  dEn/dx(keV/micro_m)  x(micro_m)
9.999990000000000268e-03 2.491999999999999993e+00 4.281000000000000227e+01 3.000000000000000279e-04
1.099989999999999996e-02 2.612999999999999989e+00 4.528000000000000114e+01 3.000000000000000279e-04
1.199990000000000084e-02 2.729999999999999982e+00 4.764999999999999858e+01 3.000000000000000279e-04
1.299990000000000000e-02 2.841000000000000192e+00 4.992000000000000171e+01 3.000000000000000279e-04
1.399990000000000089e-02 2.947999999999999954e+00 5.210999999999999943e+01 3.000000000000000279e-04
1.499990000000000004e-02 3.052000000000000046e+00 5.421999999999999886e+01 3.000000000000000279e-04
1.599990000000000093e-02 3.152000000000000135e+00 5.627000000000000313e+01 3.000000000000000279e-04
1.699990000000000182e-02 3.249000000000000110e+00 5.825000000000000000e+01 4.000000000000000192e-04
1.799989999999999923e-02 3.342999999999999972e+00 6.017999999999999972e+01 4.000000000000000192e-04
1.999990000000000101e-02 3.524000000000000021e+00 6.388000000000000256e+01 4.000000000000000192e-04
2.249989999999999976e-02 3.737999999999999989e+00 6.823999999999999488e+01 4.000000000000000192e-04
2.499990000000000198e-02 3.939999999999999947e+00 7.235999999999999943e+01 4.000000000000000192e-04
2.749990000000000073e-02 4.131999999999999673e+00 7.626999999999999602e+01 4.000000000000000192e-04
2.999989999999999948e-02 4.315999999999999837e+00 7.998999999999999488e+01 4.000000000000000192e-04
3.249989999999999823e-02 4.491999999999999993e+00 8.354999999999999716e+01 5.000000000000000104e-04
3.499990000000000046e-02 4.661999999999999922e+00 8.695999999999999375e+01 5.000000000000000104e-04
3.749989999999999574e-02 4.825000000000000178e+00 9.023999999999999488e+01 5.000000000000000104e-04
3.999989999999999796e-02 4.983999999999999986e+00 9.340999999999999659e+01 5.000000000000000104e-04
4.499989999999999546e-02 5.285999999999999588e+00 9.940999999999999659e+01 5.000000000000000104e-04
4.999989999999999990e-02 5.572000000000000064e+00 1.050000000000000000e+02 6.000000000000000559e-04
5.499989999999999740e-02 5.844000000000000306e+00 1.104000000000000057e+02 6.000000000000000559e-04
5.999989999999999490e-02 6.104000000000000092e+00 1.154000000000000057e+02 6.000000000000000559e-04
6.499989999999999934e-02 6.352999999999999758e+00 1.202000000000000028e+02 6.000000000000000559e-04
6.999990000000000379e-02 6.592999999999999972e+00 1.247999999999999972e+02 6.999999999999999929e-04
7.999989999999999879e-02 7.048000000000000043e+00 1.334000000000000057e+02 6.999999999999999929e-04
8.999989999999999379e-02 7.475999999999999979e+00 1.413000000000000114e+02 6.999999999999999929e-04
9.999990000000000268e-02 7.879999999999999893e+00 1.488000000000000114e+02 8.000000000000000383e-04
1.100000000000000006e-01 8.265000000000000568e+00 1.556999999999999886e+02 8.000000000000000383e-04
1.199999999999999956e-01 8.631999999999999673e+00 1.621999999999999886e+02 8.000000000000000383e-04
1.300000000000000044e-01 8.984999999999999432e+00 1.684000000000000057e+02 9.000000000000000838e-04
1.399989999999999846e-01 9.323999999999999844e+00 1.743000000000000114e+02 9.000000000000000838e-04
1.499989999999999934e-01 9.650999999999999801e+00 1.799000000000000057e+02 9.000000000000000838e-04
1.599990000000000023e-01 9.967999999999999972e+00 1.853000000000000114e+02 1.000000000000000021e-03
1.699990000000000112e-01 1.026999999999999957e+01 1.904000000000000057e+02 1.000000000000000021e-03
1.799989999999999923e-01 1.057000000000000028e+01 1.953000000000000114e+02 1.000000000000000021e-03
1.999990000000000101e-01 1.114000000000000057e+01 2.045999999999999943e+02 1.100000000000000066e-03
2.249990000000000046e-01 1.182000000000000028e+01 2.153000000000000114e+02 1.100000000000000066e-03
2.499989999999999990e-01 1.246000000000000085e+01 2.250999999999999943e+02 1.200000000000000112e-03
2.749990000000000490e-01 1.307000000000000028e+01 2.343000000000000114e+02 1.300000000000000157e-03
2.999990000000000157e-01 1.365000000000000036e+01 2.428000000000000114e+02 1.300000000000000157e-03
3.249990000000000379e-01 1.421000000000000085e+01 2.506999999999999886e+02 1.399999999999999986e-03
3.499990000000000046e-01 1.474000000000000021e+01 2.581999999999999886e+02 1.399999999999999986e-03
3.749990000000000268e-01 1.525999999999999979e+01 2.653000000000000114e+02 1.500000000000000031e-03
3.999990000000000490e-01 1.575999999999999979e+01 2.720000000000000000e+02 1.600000000000000077e-03
4.499990000000000379e-01 1.671999999999999886e+01 2.845000000000000000e+02 1.700000000000000122e-03
4.999990000000000268e-01 1.762000000000000099e+01 2.958000000000000114e+02 1.800000000000000168e-03
5.499990000000000157e-01 1.848000000000000043e+01 3.061999999999999886e+02 1.899999999999999996e-03
5.999990000000000601e-01 1.930000000000000071e+01 3.158000000000000114e+02 1.899999999999999996e-03
6.499989999999999934e-01 2.008999999999999986e+01 3.246999999999999886e+02 2.000000000000000042e-03
6.999990000000000379e-01 2.085000000000000142e+01 3.330000000000000000e+02 2.100000000000000304e-03
7.999990000000000157e-01 2.228999999999999915e+01 3.481000000000000227e+02 2.299999999999999961e-03
8.999989999999999934e-01 2.364000000000000057e+01 3.613999999999999773e+02 2.500000000000000052e-03
9.999990000000000823e-01 2.492000000000000171e+01 3.733999999999999773e+02 2.600000000000000314e-03
1.100000000000000089e+00 2.614000000000000057e+01 3.843000000000000114e+02 2.799999999999999972e-03
1.199999999999999956e+00 2.730000000000000071e+01 3.941999999999999886e+02 3.000000000000000062e-03
1.300000000000000044e+00 2.841000000000000014e+01 4.031999999999999886e+02 3.100000000000000325e-03
1.399999999999999911e+00 2.948999999999999844e+01 4.116000000000000227e+02 3.299999999999999982e-03
1.500000000000000000e+00 3.051999999999999957e+01 4.193000000000000114e+02 3.400000000000000244e-03
1.600000000000000089e+00 3.151999999999999957e+01 4.265000000000000000e+02 3.600000000000000335e-03
1.699999999999999956e+00 3.249000000000000199e+01 4.331000000000000227e+02 3.700000000000000164e-03
1.800000000000000044e+00 3.343999999999999773e+01 4.393999999999999773e+02 3.799999999999999992e-03
2.000000000000000000e+00 3.524000000000000199e+01 4.506999999999999886e+02 4.100000000000000346e-03
2.250000000000000000e+00 3.738000000000000256e+01 4.631000000000000227e+02 4.500000000000000527e-03
2.500000000000000000e+00 3.939999999999999858e+01 4.738999999999999773e+02 4.800000000000000447e-03
2.750000000000000000e+00 4.132999999999999829e+01 4.833999999999999773e+02 5.100000000000000366e-03
3.000000000000000000e+00 4.317000000000000171e+01 4.916999999999999886e+02 5.400000000000000286e-03
3.250000000000000000e+00 4.492999999999999972e+01 4.991000000000000227e+02 5.800000000000000468e-03
3.500000000000000000e+00 4.663000000000000256e+01 5.058000000000000114e+02 6.100000000000000387e-03
3.750000000000000000e+00 4.825999999999999801e+01 5.118000000000000114e+02 6.400000000000000307e-03
4.000000000000000000e+00 4.985000000000000142e+01 5.171000000000000227e+02 6.700000000000000226e-03
4.500000000000000000e+00 5.286999999999999744e+01 5.263999999999999773e+02 7.300000000000000065e-03
5.000000000000000000e+00 5.572999999999999687e+01 5.341000000000000227e+02 7.900000000000000772e-03
5.500000000000000000e+00 5.845000000000000284e+01 5.403999999999999773e+02 8.500000000000000611e-03
6.000000000000000000e+00 6.104999999999999716e+01 5.457000000000000455e+02 9.100000000000000450e-03
6.500000000000000000e+00 6.353999999999999915e+01 5.501000000000000227e+02 9.700000000000000289e-03
7.000000000000000000e+00 6.593999999999999773e+01 5.537999999999999545e+02 1.030000000000000013e-02
8.000000000000000000e+00 7.050000000000000000e+01 5.592999999999999545e+02 1.140000000000000041e-02
9.000000000000000000e+00 7.478000000000000114e+01 5.631000000000000227e+02 1.260000000000000009e-02
1.000000000000000000e+01 7.881999999999999318e+01 5.653999999999999773e+02 1.370000000000000037e-02
1.100000000000000000e+01 8.267000000000000171e+01 5.667000000000000455e+02 1.490000000000000005e-02
1.200000000000000000e+01 8.634999999999999432e+01 5.672000000000000455e+02 1.600000000000000033e-02
1.300000000000000000e+01 8.987999999999999545e+01 5.668999999999999773e+02 1.710000000000000062e-02
1.400000000000000000e+01 9.326999999999999602e+01 5.662000000000000455e+02 1.830000000000000029e-02
1.500000000000000000e+01 9.654000000000000625e+01 5.650000000000000000e+02 1.940000000000000058e-02
1.600000000000000000e+01 9.970999999999999375e+01 5.635000000000000000e+02 2.050000000000000086e-02
1.700000000000000000e+01 1.027999999999999972e+02 5.617000000000000455e+02 2.170000000000000054e-02
1.800000000000000000e+01 1.057999999999999972e+02 5.597000000000000455e+02 2.280000000000000082e-02
2.000000000000000000e+01 1.115000000000000000e+02 5.551000000000000227e+02 2.510000000000000078e-02
2.250000000000000000e+01 1.182999999999999972e+02 5.486000000000000227e+02 2.800000000000000058e-02
2.500000000000000000e+01 1.247000000000000028e+02 5.417000000000000455e+02 3.090000000000000038e-02
2.750000000000000000e+01 1.306999999999999886e+02 5.346000000000000227e+02 3.380000000000000365e-02
3.000000000000000000e+01 1.365999999999999943e+02 5.272999999999999545e+02 3.679999999999999938e-02
3.250000000000000000e+01 1.420999999999999943e+02 5.200000000000000000e+02 3.969999999999999918e-02
3.500000000000000000e+01 1.475000000000000000e+02 5.127000000000000455e+02 4.270000000000000184e-02
3.750000000000000000e+01 1.526999999999999886e+02 5.056000000000000227e+02 4.570000000000000451e-02
4.000000000000000000e+01 1.576999999999999886e+02 4.986000000000000227e+02 4.880000000000000310e-02
4.500000000000000000e+01 1.673000000000000114e+02 4.848999999999999773e+02 5.490000000000000435e-02
5.000000000000000000e+01 1.763000000000000114e+02 4.718999999999999773e+02 6.110000000000000153e-02
5.500000000000000000e+01 1.849000000000000057e+02 4.596000000000000227e+02 6.740000000000000158e-02
6.000000000000000000e+01 1.928000000000000114e+02 4.478999999999999773e+02 7.370000000000000162e-02
6.500000000000000000e+01 2.010000000000000000e+02 4.368000000000000114e+02 8.010000000000000453e-02
7.000000000000000000e+01 2.093000000000000114e+02 4.263999999999999773e+02 8.660000000000001030e-02
8.000000000000000000e+01 2.250000000000000000e+02 4.070000000000000000e+02 9.960000000000000797e-02
9.000000000000000000e+01 2.388000000000000114e+02 3.896000000000000227e+02 1.129000000000000004e-01
1.000000000000000000e+02 2.506999999999999886e+02 3.738000000000000114e+02 1.262999999999999956e-01
1.100000000000000000e+02 2.608999999999999773e+02 3.593999999999999773e+02 1.398000000000000076e-01
1.200000000000000000e+02 2.696999999999999886e+02 3.463000000000000114e+02 1.536000000000000143e-01
1.300000000000000000e+02 2.775000000000000000e+02 3.343000000000000114e+02 1.675000000000000100e-01
1.400000000000000000e+02 2.843999999999999773e+02 3.231999999999999886e+02 1.815000000000000224e-01
1.500000000000000000e+02 2.906999999999999886e+02 3.128999999999999773e+02 1.957000000000000128e-01
1.600000000000000000e+02 2.963999999999999773e+02 3.033999999999999773e+02 2.101000000000000090e-01
1.700000000000000000e+02 3.018999999999999773e+02 2.946000000000000227e+02 2.245000000000000051e-01
1.800000000000000000e+02 3.071000000000000227e+02 2.863000000000000114e+02 2.392000000000000237e-01
2.000000000000000000e+02 3.171000000000000227e+02 2.713000000000000114e+02 2.686999999999999944e-01
2.250000000000000000e+02 3.295000000000000000e+02 2.550000000000000000e+02 3.062000000000000277e-01
2.500000000000000000e+02 3.421000000000000227e+02 2.408000000000000114e+02 3.440000000000000280e-01
2.750000000000000000e+02 3.553999999999999773e+02 2.284000000000000057e+02 3.820999999999999952e-01
3.000000000000000000e+02 3.691999999999999886e+02 2.173000000000000114e+02 4.202000000000000179e-01
3.250000000000000000e+02 3.836999999999999886e+02 2.075000000000000000e+02 4.581999999999999962e-01
3.500000000000000000e+02 3.988999999999999773e+02 1.985999999999999943e+02 4.959999999999999964e-01
3.750000000000000000e+02 4.146000000000000227e+02 1.905999999999999943e+02 5.334999999999999742e-01
4.000000000000000000e+02 4.306999999999999886e+02 1.833000000000000114e+02 5.705999999999999961e-01
4.500000000000000000e+02 4.641999999999999886e+02 1.704000000000000057e+02 6.435000000000000719e-01
5.000000000000000000e+02 4.988999999999999773e+02 1.595000000000000000e+02 7.142000000000000570e-01
5.500000000000000000e+02 5.342999999999999545e+02 1.500999999999999943e+02 7.827000000000000624e-01
6.000000000000000000e+02 5.700000000000000000e+02 1.418000000000000114e+02 8.488999999999999879e-01
6.500000000000000000e+02 6.058999999999999773e+02 1.345999999999999943e+02 9.128000000000000558e-01
7.000000000000000000e+02 6.417000000000000455e+02 1.280999999999999943e+02 9.744000000000000439e-01
8.000000000000000000e+02 7.122999999999999545e+02 1.170999999999999943e+02 1.090000000000000080e+00
9.000000000000000000e+02 7.810000000000000000e+02 1.080000000000000000e+02 1.199999999999999956e+00
1.000000000000000000e+03 8.473999999999999773e+02 1.004000000000000057e+02 1.300000000000000044e+00
1.100000000000000000e+03 9.112999999999999545e+02 9.385999999999999943e+01 1.399999999999999911e+00
1.200000000000000000e+03 9.727000000000000455e+02 8.823999999999999488e+01 1.489999999999999991e+00
1.300000000000000000e+03 1.032000000000000000e+03 8.332999999999999829e+01 1.580000000000000071e+00
1.400000000000000000e+03 1.088000000000000000e+03 7.898999999999999488e+01 1.669999999999999929e+00
1.500000000000000000e+03 1.142000000000000000e+03 7.512999999999999545e+01 1.750000000000000000e+00
1.600000000000000000e+03 1.195000000000000000e+03 7.167000000000000171e+01 1.830000000000000071e+00
1.700000000000000000e+03 1.245000000000000000e+03 6.854999999999999716e+01 1.899999999999999911e+00
1.800000000000000000e+03 1.293000000000000000e+03 6.570999999999999375e+01 1.969999999999999973e+00
2.000000000000000000e+03 1.385000000000000000e+03 6.075999999999999801e+01 2.109999999999999876e+00
2.250000000000000000e+03 1.492000000000000000e+03 5.561999999999999744e+01 2.279999999999999805e+00
2.500000000000000000e+03 1.591000000000000000e+03 5.135999999999999943e+01 2.430000000000000160e+00
2.750000000000000000e+03 1.685000000000000000e+03 4.775999999999999801e+01 2.569999999999999840e+00
3.000000000000000000e+03 1.773000000000000000e+03 4.467999999999999972e+01 2.709999999999999964e+00
3.250000000000000000e+03 1.857000000000000000e+03 4.200000000000000000e+01 2.850000000000000089e+00
3.500000000000000000e+03 1.936000000000000000e+03 3.965999999999999659e+01 2.970000000000000195e+00
3.750000000000000000e+03 2.013000000000000000e+03 3.757999999999999829e+01 3.089999999999999858e+00
4.000000000000000000e+03 2.087000000000000000e+03 3.572999999999999687e+01 3.209999999999999964e+00
4.500000000000000000e+03 2.227000000000000000e+03 3.257000000000000028e+01 3.439999999999999947e+00
5.000000000000000000e+03 2.358000000000000000e+03 2.996999999999999886e+01 3.649999999999999911e+00
5.500000000000000000e+03 2.483000000000000000e+03 2.778000000000000114e+01 3.850000000000000089e+00
6.000000000000000000e+03 2.601000000000000000e+03 2.592000000000000171e+01 4.049999999999999822e+00
6.500000000000000000e+03 2.715000000000000000e+03 2.430000000000000071e+01 4.230000000000000426e+00
7.000000000000000000e+03 2.825000000000000000e+03 2.289999999999999858e+01 4.410000000000000142e+00
8.000000000000000000e+03 3.034000000000000000e+03 2.055000000000000071e+01 4.750000000000000000e+00
9.000000000000000000e+03 3.230000000000000000e+03 1.867000000000000171e+01 5.059999999999999609e+00
1.000000000000000000e+04 3.414000000000000000e+03 1.712999999999999901e+01 5.360000000000000320e+00
