# Energy(keV)    dEe/dx(keV/micro_m)  dEn/dx(keV/micro_m)  x(micro_m)
9.999990000000000268e-03 3.361000000000000210e+00 3.060000000000000142e+01 6.999999999999999929e-04
1.099989999999999996e-02 3.524999999999999911e+00 3.267999999999999972e+01 6.999999999999999929e-04
1.199990000000000084e-02 3.681999999999999940e+00 3.470000000000000284e+01 6.999999999999999929e-04
1.299990000000000000e-02 3.831999999999999851e+00 3.667000000000000171e+01 8.000000000000000383e-04
1.399990000000000089e-02 3.976999999999999869e+00 3.857999999999999829e+01 8.000000000000000383e-04
1.499990000000000004e-02 4.115999999999999659e+00 4.045000000000000284e+01 8.000000000000000383e-04
1.599990000000000093e-02 4.251000000000000334e+00 4.227000000000000313e+01 8.000000000000000383e-04
1.699990000000000182e-02 4.381999999999999673e+00 4.406000000000000227e+01 8.000000000000000383e-04
1.799989999999999923e-02 4.509000000000000341e+00 4.581000000000000227e+01 9.000000000000000838e-04
1.999990000000000101e-02 4.753000000000000114e+00 4.920000000000000284e+01 9.000000000000000838e-04
2.249989999999999976e-02 5.041000000000000369e+00 5.328000000000000114e+01 9.000000000000000838e-04
2.499990000000000198e-02 5.314000000000000057e+00 5.721000000000000085e+01 1.000000000000000021e-03
2.749990000000000073e-02 5.573000000000000398e+00 6.099000000000000199e+01 1.000000000000000021e-03
2.999989999999999948e-02 5.820999999999999730e+00 6.465000000000000568e+01 1.000000000000000021e-03
3.249989999999999823e-02 6.059000000000000163e+00 6.820000000000000284e+01 1.100000000000000066e-03
3.499990000000000046e-02 6.288000000000000256e+00 7.164000000000000057e+01 1.100000000000000066e-03
3.749989999999999574e-02 6.508000000000000007e+00 7.500000000000000000e+01 1.100000000000000066e-03
3.999989999999999796e-02 6.722000000000000419e+00 7.828000000000000114e+01 1.200000000000000112e-03
4.499989999999999546e-02 7.128999999999999559e+00 8.460999999999999943e+01 1.200000000000000112e-03
4.999989999999999990e-02 7.514999999999999680e+00 9.068000000000000682e+01 1.300000000000000157e-03
5.499989999999999740e-02 7.881999999999999673e+00 9.651999999999999602e+01 1.300000000000000157e-03
5.999989999999999490e-02 8.231999999999999318e+00 1.022000000000000028e+02 1.300000000000000157e-03
6.499989999999999934e-02 8.567999999999999616e+00 1.075999999999999943e+02 1.399999999999999986e-03
6.999990000000000379e-02 8.891999999999999460e+00 1.129000000000000057e+02 1.399999999999999986e-03
7.999989999999999879e-02 9.506000000000000227e+00 1.230999999999999943e+02 1.500000000000000031e-03
8.999989999999999379e-02 1.008000000000000007e+01 1.328000000000000114e+02 1.600000000000000077e-03
9.999990000000000268e-02 1.063000000000000078e+01 1.420000000000000000e+02 1.600000000000000077e-03
1.100000000000000006e-01 1.115000000000000036e+01 1.509000000000000057e+02 1.700000000000000122e-03
1.199999999999999956e-01 1.164000000000000057e+01 1.594000000000000057e+02 1.700000000000000122e-03
1.300000000000000044e-01 1.211999999999999922e+01 1.676999999999999886e+02 1.800000000000000168e-03
1.399989999999999846e-01 1.258000000000000007e+01 1.756999999999999886e+02 1.800000000000000168e-03
1.499989999999999934e-01 1.301999999999999957e+01 1.835000000000000000e+02 1.899999999999999996e-03
1.599990000000000023e-01 1.343999999999999950e+01 1.910000000000000000e+02 1.899999999999999996e-03
1.699990000000000112e-01 1.385999999999999943e+01 1.984000000000000057e+02 2.000000000000000042e-03
1.799989999999999923e-01 1.425999999999999979e+01 2.055000000000000000e+02 2.000000000000000042e-03
1.999990000000000101e-01 1.502999999999999936e+01 2.194000000000000057e+02 2.100000000000000304e-03
2.249990000000000046e-01 1.593999999999999950e+01 2.358000000000000114e+02 2.200000000000000133e-03
2.499989999999999990e-01 1.680000000000000071e+01 2.515000000000000000e+02 2.299999999999999961e-03
2.749990000000000490e-01 1.762000000000000099e+01 2.666000000000000227e+02 2.299999999999999961e-03
2.999990000000000157e-01 1.841000000000000014e+01 2.810000000000000000e+02 2.400000000000000223e-03
3.249990000000000379e-01 1.916000000000000014e+01 2.948000000000000114e+02 2.500000000000000052e-03
3.499990000000000046e-01 1.987999999999999901e+01 3.081999999999999886e+02 2.500000000000000052e-03
3.749990000000000268e-01 2.057999999999999829e+01 3.211999999999999886e+02 2.600000000000000314e-03
3.999990000000000490e-01 2.126000000000000156e+01 3.338000000000000114e+02 2.700000000000000143e-03
4.499990000000000379e-01 2.255000000000000071e+01 3.578000000000000114e+02 2.799999999999999972e-03
4.999990000000000268e-01 2.376999999999999957e+01 3.806999999999999886e+02 2.900000000000000234e-03
5.499990000000000157e-01 2.492999999999999972e+01 4.025000000000000000e+02 3.000000000000000062e-03
5.999990000000000601e-01 2.603000000000000114e+01 4.233000000000000114e+02 3.100000000000000325e-03
6.499989999999999934e-01 2.710000000000000142e+01 4.433000000000000114e+02 3.200000000000000153e-03
6.999990000000000379e-01 2.812000000000000099e+01 4.625000000000000000e+02 3.299999999999999982e-03
7.999990000000000157e-01 3.005999999999999872e+01 4.991000000000000227e+02 3.500000000000000073e-03
8.999989999999999934e-01 3.187999999999999901e+01 5.333999999999999773e+02 3.700000000000000164e-03
9.999990000000000823e-01 3.360999999999999943e+01 5.657999999999999545e+02 3.799999999999999992e-03
1.100000000000000089e+00 3.525000000000000000e+01 5.965000000000000000e+02 4.000000000000000083e-03
1.199999999999999956e+00 3.682000000000000028e+01 6.258999999999999773e+02 4.100000000000000346e-03
1.300000000000000044e+00 3.832000000000000028e+01 6.538999999999999773e+02 4.200000000000000608e-03
1.399999999999999911e+00 3.977000000000000313e+01 6.807999999999999545e+02 4.300000000000000003e-03
1.500000000000000000e+00 4.115999999999999659e+01 7.066000000000000227e+02 4.500000000000000527e-03
1.600000000000000089e+00 4.250999999999999801e+01 7.316000000000000227e+02 4.599999999999999922e-03
1.699999999999999956e+00 4.382000000000000028e+01 7.557000000000000455e+02 4.700000000000000185e-03
1.800000000000000044e+00 4.509000000000000341e+01 7.790000000000000000e+02 4.800000000000000447e-03
2.000000000000000000e+00 4.753000000000000114e+01 8.235000000000000000e+02 5.000000000000000104e-03
2.250000000000000000e+00 5.040999999999999659e+01 8.757000000000000455e+02 5.300000000000000024e-03
2.500000000000000000e+00 5.314000000000000057e+01 9.246000000000000227e+02 5.500000000000000548e-03
2.750000000000000000e+00 5.574000000000000199e+01 9.707000000000000455e+02 5.700000000000000205e-03
3.000000000000000000e+00 5.821000000000000085e+01 1.014000000000000000e+03 6.000000000000000125e-03
3.250000000000000000e+00 6.059000000000000341e+01 1.056000000000000000e+03 6.200000000000000649e-03
3.500000000000000000e+00 6.288000000000000256e+01 1.095000000000000000e+03 6.400000000000000307e-03
3.750000000000000000e+00 6.509000000000000341e+01 1.133000000000000000e+03 6.500000000000000569e-03
4.000000000000000000e+00 6.721999999999999886e+01 1.169000000000000000e+03 6.700000000000000226e-03
4.500000000000000000e+00 7.129999999999999716e+01 1.238000000000000000e+03 7.100000000000000408e-03
5.000000000000000000e+00 7.515999999999999659e+01 1.302000000000000000e+03 7.400000000000000328e-03
5.500000000000000000e+00 7.881999999999999318e+01 1.361000000000000000e+03 7.700000000000000247e-03
6.000000000000000000e+00 8.232999999999999829e+01 1.417000000000000000e+03 8.099999999999999561e-03
6.500000000000000000e+00 8.568999999999999773e+01 1.470000000000000000e+03 8.400000000000001216e-03
7.000000000000000000e+00 8.893000000000000682e+01 1.521000000000000000e+03 8.600000000000000006e-03
8.000000000000000000e+00 9.506999999999999318e+01 1.614000000000000000e+03 9.199999999999999845e-03
9.000000000000000000e+00 1.007999999999999972e+02 1.699000000000000000e+03 9.700000000000000289e-03
1.000000000000000000e+01 1.062999999999999972e+02 1.778000000000000000e+03 1.020000000000000073e-02
1.100000000000000000e+01 1.115000000000000000e+02 1.851000000000000000e+03 1.070000000000000118e-02
1.200000000000000000e+01 1.164000000000000057e+02 1.919000000000000000e+03 1.110000000000000049e-02
1.300000000000000000e+01 1.212000000000000028e+02 1.983000000000000000e+03 1.160000000000000094e-02
1.400000000000000000e+01 1.257999999999999972e+02 2.043000000000000000e+03 1.200000000000000025e-02
1.500000000000000000e+01 1.301999999999999886e+02 2.100000000000000000e+03 1.240000000000000130e-02
1.600000000000000000e+01 1.344000000000000057e+02 2.154000000000000000e+03 1.280000000000000061e-02
1.700000000000000000e+01 1.385999999999999943e+02 2.206000000000000000e+03 1.319999999999999993e-02
1.800000000000000000e+01 1.425999999999999943e+02 2.254000000000000000e+03 1.360000000000000098e-02
2.000000000000000000e+01 1.503000000000000114e+02 2.346000000000000000e+03 1.440000000000000134e-02
2.250000000000000000e+01 1.594000000000000057e+02 2.449000000000000000e+03 1.530000000000000110e-02
2.500000000000000000e+01 1.680999999999999943e+02 2.543000000000000000e+03 1.609999999999999973e-02
2.750000000000000000e+01 1.763000000000000114e+02 2.630000000000000000e+03 1.700000000000000122e-02
3.000000000000000000e+01 1.840999999999999943e+02 2.709000000000000000e+03 1.779999999999999985e-02
3.250000000000000000e+01 1.915999999999999943e+02 2.782000000000000000e+03 1.860000000000000195e-02
3.500000000000000000e+01 1.989000000000000057e+02 2.851000000000000000e+03 1.930000000000000118e-02
3.750000000000000000e+01 2.058000000000000114e+02 2.914000000000000000e+03 2.009999999999999981e-02
4.000000000000000000e+01 2.125999999999999943e+02 2.974000000000000000e+03 2.080000000000000251e-02
4.500000000000000000e+01 2.255000000000000000e+02 3.083000000000000000e+03 2.220000000000000098e-02
5.000000000000000000e+01 2.376999999999999886e+02 3.181000000000000000e+03 2.359999999999999945e-02
5.500000000000000000e+01 2.493000000000000114e+02 3.269000000000000000e+03 2.500000000000000139e-02
6.000000000000000000e+01 2.603999999999999773e+02 3.349000000000000000e+03 2.630000000000000046e-02
6.500000000000000000e+01 2.710000000000000000e+02 3.422000000000000000e+03 2.750000000000000014e-02
7.000000000000000000e+01 2.813000000000000114e+02 3.489000000000000000e+03 2.880000000000000268e-02
8.000000000000000000e+01 3.006999999999999886e+02 3.607000000000000000e+03 3.120000000000000204e-02
9.000000000000000000e+01 3.188999999999999773e+02 3.710000000000000000e+03 3.360000000000000486e-02
1.000000000000000000e+02 3.361999999999999886e+02 3.799000000000000000e+03 3.590000000000000135e-02
1.100000000000000000e+02 3.526000000000000227e+02 3.878000000000000000e+03 3.810000000000000192e-02
1.200000000000000000e+02 3.683000000000000114e+02 3.947000000000000000e+03 4.030000000000000249e-02
1.300000000000000000e+02 3.833000000000000114e+02 4.010000000000000000e+03 4.240000000000000019e-02
1.400000000000000000e+02 3.978000000000000114e+02 4.066000000000000000e+03 4.460000000000000075e-02
1.500000000000000000e+02 4.118000000000000114e+02 4.116000000000000000e+03 4.670000000000000540e-02
1.600000000000000000e+02 4.253000000000000114e+02 4.161000000000000000e+03 4.870000000000000023e-02
1.700000000000000000e+02 4.383999999999999773e+02 4.203000000000000000e+03 5.080000000000000487e-02
1.800000000000000000e+02 4.511000000000000227e+02 4.240000000000000000e+03 5.279999999999999971e-02
2.000000000000000000e+02 4.755000000000000000e+02 4.306000000000000000e+03 5.670000000000000040e-02
2.250000000000000000e+02 5.043999999999999773e+02 4.373000000000000000e+03 6.160000000000000198e-02
2.500000000000000000e+02 5.317000000000000455e+02 4.427000000000000000e+03 6.640000000000000069e-02
2.750000000000000000e+02 5.577000000000000455e+02 4.471000000000000000e+03 7.119999999999999940e-02
3.000000000000000000e+02 5.825000000000000000e+02 4.506000000000000000e+03 7.580000000000000626e-02
3.250000000000000000e+02 6.062999999999999545e+02 4.535000000000000000e+03 8.050000000000000211e-02
3.500000000000000000e+02 6.292000000000000455e+02 4.558000000000000000e+03 8.510000000000000897e-02
3.750000000000000000e+02 6.512999999999999545e+02 4.576000000000000000e+03 8.959999999999999909e-02
4.000000000000000000e+02 6.727000000000000455e+02 4.590000000000000000e+03 9.410000000000000309e-02
4.500000000000000000e+02 7.135000000000000000e+02 4.607000000000000000e+03 1.031000000000000111e-01
5.000000000000000000e+02 7.902000000000000455e+02 4.614000000000000000e+03 1.120000000000000023e-01
5.500000000000000000e+02 8.618999999999999773e+02 4.614000000000000000e+03 1.207000000000000017e-01
6.000000000000000000e+02 9.165000000000000000e+02 4.607000000000000000e+03 1.294000000000000150e-01
6.500000000000000000e+02 9.586000000000000227e+02 4.595000000000000000e+03 1.380000000000000115e-01
7.000000000000000000e+02 9.916000000000000227e+02 4.580000000000000000e+03 1.466000000000000081e-01
8.000000000000000000e+02 1.040000000000000000e+03 4.541000000000000000e+03 1.637000000000000122e-01
9.000000000000000000e+02 1.074000000000000000e+03 4.495000000000000000e+03 1.809000000000000052e-01
1.000000000000000000e+03 1.102000000000000000e+03 4.444000000000000000e+03 1.982000000000000151e-01
1.100000000000000000e+03 1.126000000000000000e+03 4.390000000000000000e+03 2.154999999999999971e-01
1.200000000000000000e+03 1.149000000000000000e+03 4.335000000000000000e+03 2.330000000000000127e-01
1.300000000000000000e+03 1.172000000000000000e+03 4.279000000000000000e+03 2.505999999999999894e-01
1.400000000000000000e+03 1.194000000000000000e+03 4.223000000000000000e+03 2.683000000000000385e-01
1.500000000000000000e+03 1.218000000000000000e+03 4.168000000000000000e+03 2.861000000000000210e-01
1.600000000000000000e+03 1.242000000000000000e+03 4.113000000000000000e+03 3.041000000000000369e-01
1.700000000000000000e+03 1.266000000000000000e+03 4.059000000000000000e+03 3.220999999999999974e-01
1.800000000000000000e+03 1.292000000000000000e+03 4.006000000000000000e+03 3.402999999999999914e-01
2.000000000000000000e+03 1.343000000000000000e+03 3.904000000000000000e+03 3.769000000000000128e-01
2.250000000000000000e+03 1.410000000000000000e+03 3.782000000000000000e+03 4.232000000000000206e-01
2.500000000000000000e+03 1.477000000000000000e+03 3.668000000000000000e+03 4.701000000000000179e-01
2.750000000000000000e+03 1.544000000000000000e+03 3.561000000000000000e+03 5.172999999999999821e-01
3.000000000000000000e+03 1.611000000000000000e+03 3.461000000000000000e+03 5.650000000000000577e-01
3.250000000000000000e+03 1.676000000000000000e+03 3.366000000000000000e+03 6.129999999999999893e-01
3.500000000000000000e+03 1.739000000000000000e+03 3.278000000000000000e+03 6.612999999999999989e-01
3.750000000000000000e+03 1.800000000000000000e+03 3.194000000000000000e+03 7.097999999999999865e-01
4.000000000000000000e+03 1.859000000000000000e+03 3.115000000000000000e+03 7.586000000000000520e-01
4.500000000000000000e+03 1.971000000000000000e+03 2.971000000000000000e+03 8.568000000000000060e-01
5.000000000000000000e+03 2.074000000000000000e+03 2.841000000000000000e+03 9.556999999999999940e-01
5.500000000000000000e+03 2.168000000000000000e+03 2.724000000000000000e+03 1.060000000000000053e+00
6.000000000000000000e+03 2.254000000000000000e+03 2.618000000000000000e+03 1.159999999999999920e+00
6.500000000000000000e+03 2.333000000000000000e+03 2.521000000000000000e+03 1.260000000000000009e+00
7.000000000000000000e+03 2.406000000000000000e+03 2.432000000000000000e+03 1.360000000000000098e+00
8.000000000000000000e+03 2.535000000000000000e+03 2.275000000000000000e+03 1.560000000000000053e+00
9.000000000000000000e+03 2.646000000000000000e+03 2.140000000000000000e+03 1.760000000000000009e+00
1.000000000000000000e+04 2.743000000000000000e+03 2.023000000000000000e+03 1.969999999999999973e+00
